加速电压(V),万用表示数(mV)
1,0.03
2,0.03
3,0.03
4,0.04
5,0.03
6,0.04
7,0.06
8,0.14
9,0.24
10,0.38
11,0.48
12,0.58
13,0.66
14,0.74
15,0.80
16,0.84
17,0.87
18,0.90
19,0.94
20,1.04
21,1.28
22,1.58
23,1.90
24,2.24
25,2.55
26,2.82
27,2.92
28,2.79
29,2.54
30,2.26
31,2.21
32,2.43
33,2.87
34,3.35
35,3.83
36,4.28
37,4.58
38,4.77
39,4.64
40,4.24
41,3.73
42,3.39
43,3.49
44,3.78
45,4.31
46,4.94
47,5.43
48,5.92
49,6.22
50,6.33
51,6.17
52,5.75
53,5.23
54,4.84
55,4.71
56,5.04
57,5.52
58,6.11
59,6.70
60,7.14